2.500000000000000000e+01 1.060490000000000066e+02
2.500000000000000000e+01 1.142459999999999951e+02
2.500000000000000000e+01 1.208130000000000024e+02
2.500000000000000000e+01 1.234200000000000017e+02
2.500000000000000000e+01 1.310360000000000014e+02
2.500000000000000000e+01 1.099809999999999945e+02
2.500000000000000000e+01 1.129090000000000060e+02
2.500000000000000000e+01 1.197330000000000041e+02
2.500000000000000000e+01 1.204500000000000028e+02
2.500000000000000000e+01 1.214399999999999977e+02
2.500000000000000000e+01 1.162439999999999998e+02
2.500000000000000000e+01 1.175330000000000013e+02
2.500000000000000000e+01 1.218220000000000027e+02
2.500000000000000000e+01 1.203289999999999935e+02
2.500000000000000000e+01 1.248719999999999999e+02
2.500000000000000000e+01 1.153850000000000051e+02
2.500000000000000000e+01 1.204620000000000033e+02
2.500000000000000000e+01 1.190969999999999942e+02
2.500000000000000000e+01 1.099000000000000057e+02
2.500000000000000000e+01 1.131490000000000009e+02
2.500000000000000000e+01 1.154230000000000018e+02
2.500000000000000000e+01 1.180229999999999961e+02
2.500000000000000000e+01 1.112369999999999948e+02
2.500000000000000000e+01 1.173430000000000035e+02
2.500000000000000000e+01 1.222960000000000065e+02
2.500000000000000000e+01 1.040120000000000005e+02
2.500000000000000000e+01 1.159860000000000042e+02
2.500000000000000000e+01 1.192180000000000035e+02
2.500000000000000000e+01 1.264470000000000027e+02
2.500000000000000000e+01 1.199800000000000040e+02
2.500000000000000000e+01 1.238250000000000028e+02
2.500000000000000000e+01 1.236940000000000026e+02
2.500000000000000000e+01 1.264539999999999935e+02
2.500000000000000000e+01 1.157399999999999949e+02
2.500000000000000000e+01 1.164639999999999986e+02
2.500000000000000000e+01 1.270229999999999961e+02
2.500000000000000000e+01 1.305120000000000005e+02
2.500000000000000000e+01 1.247999999999999972e+02
2.500000000000000000e+01 1.131659999999999968e+02
2.500000000000000000e+01 1.197459999999999951e+02
2.500000000000000000e+01 1.128829999999999956e+02
2.500000000000000000e+01 1.088859999999999957e+02
2.500000000000000000e+01 1.236760000000000019e+02
2.500000000000000000e+01 1.178239999999999981e+02
2.500000000000000000e+01 1.205010000000000048e+02
2.500000000000000000e+01 1.193670000000000044e+02
2.500000000000000000e+01 1.271899999999999977e+02
2.500000000000000000e+01 1.198990000000000009e+02
2.500000000000000000e+01 1.232489999999999952e+02
2.500000000000000000e+01 1.269270000000000067e+02
2.500000000000000000e+01 1.240060000000000002e+02
2.500000000000000000e+01 1.160030000000000001e+02
2.500000000000000000e+01 1.119099999999999966e+02
2.500000000000000000e+01 1.147830000000000013e+02
2.500000000000000000e+01 1.143100000000000023e+02
2.500000000000000000e+01 1.205660000000000025e+02
2.500000000000000000e+01 1.167740000000000009e+02
2.500000000000000000e+01 1.125220000000000056e+02
2.500000000000000000e+01 1.078089999999999975e+02
2.500000000000000000e+01 1.217259999999999991e+02
2.500000000000000000e+01 1.203559999999999945e+02
2.500000000000000000e+01 1.167609999999999957e+02
2.500000000000000000e+01 1.191230000000000047e+02
2.500000000000000000e+01 1.257840000000000060e+02
2.500000000000000000e+01 1.251020000000000039e+02
2.500000000000000000e+01 1.298269999999999982e+02
2.500000000000000000e+01 1.200000000000000000e+02
2.500000000000000000e+01 1.126380000000000052e+02
2.500000000000000000e+01 1.191479999999999961e+02
2.500000000000000000e+01 1.212770000000000010e+02
2.500000000000000000e+01 1.200529999999999973e+02
2.500000000000000000e+01 1.174090000000000060e+02
2.500000000000000000e+01 1.161539999999999964e+02
2.500000000000000000e+01 1.159969999999999999e+02
2.500000000000000000e+01 1.189290000000000020e+02
2.500000000000000000e+01 1.233589999999999947e+02
2.500000000000000000e+01 1.157300000000000040e+02
2.500000000000000000e+01 1.239060000000000059e+02
2.500000000000000000e+01 1.232450000000000045e+02
2.500000000000000000e+01 1.230289999999999964e+02
2.500000000000000000e+01 1.210139999999999958e+02
2.500000000000000000e+01 1.445850000000000080e+02
2.500000000000000000e+01 1.202980000000000018e+02
2.500000000000000000e+01 1.166560000000000059e+02
2.500000000000000000e+01 1.135289999999999964e+02
2.500000000000000000e+01 1.185460000000000065e+02
2.500000000000000000e+01 1.169659999999999940e+02
2.500000000000000000e+01 1.198610000000000042e+02
2.500000000000000000e+01 1.202270000000000039e+02
2.500000000000000000e+01 1.224579999999999984e+02
2.500000000000000000e+01 1.191020000000000039e+02
2.500000000000000000e+01 1.236550000000000011e+02
2.500000000000000000e+01 1.288919999999999959e+02
2.500000000000000000e+01 1.233319999999999936e+02
2.500000000000000000e+01 1.206689999999999969e+02
2.500000000000000000e+01 1.224920000000000044e+02
2.500000000000000000e+01 1.299259999999999877e+02
2.500000000000000000e+01 1.227450000000000045e+02
2.500000000000000000e+01 1.143050000000000068e+02
2.500000000000000000e+01 1.154770000000000039e+02
2.500000000000000000e+01 1.095150000000000006e+02
2.500000000000000000e+01 1.142939999999999969e+02
2.500000000000000000e+01 1.134939999999999998e+02
2.500000000000000000e+01 1.067069999999999936e+02
2.500000000000000000e+01 1.130799999999999983e+02
2.500000000000000000e+01 1.120049999999999955e+02
2.500000000000000000e+01 1.242530000000000001e+02
2.500000000000000000e+01 1.223340000000000032e+02
2.500000000000000000e+01 1.210349999999999966e+02
2.500000000000000000e+01 1.156580000000000013e+02
2.500000000000000000e+01 1.232630000000000052e+02
2.500000000000000000e+01 1.228960000000000008e+02
2.500000000000000000e+01 1.252219999999999942e+02
2.500000000000000000e+01 1.203810000000000002e+02
2.500000000000000000e+01 1.224659999999999940e+02
2.500000000000000000e+01 1.020799999999999983e+02
2.500000000000000000e+01 1.203580000000000041e+02
2.500000000000000000e+01 1.157609999999999957e+02
2.500000000000000000e+01 1.107630000000000052e+02
2.500000000000000000e+01 1.185559999999999974e+02
2.500000000000000000e+01 1.168700000000000045e+02
2.500000000000000000e+01 1.211419999999999959e+02
2.500000000000000000e+01 1.197480000000000047e+02
2.500000000000000000e+01 1.207450000000000045e+02
2.500000000000000000e+01 1.164110000000000014e+02
2.500000000000000000e+01 1.140960000000000036e+02
2.500000000000000000e+01 1.173569999999999993e+02
2.500000000000000000e+01 1.168689999999999998e+02
2.500000000000000000e+01 1.139710000000000036e+02
2.500000000000000000e+01 1.139050000000000011e+02
2.500000000000000000e+01 1.208559999999999945e+02
2.500000000000000000e+01 1.245639999999999930e+02
2.500000000000000000e+01 1.180780000000000030e+02
2.500000000000000000e+01 1.187960000000000065e+02
2.500000000000000000e+01 1.180400000000000063e+02
2.500000000000000000e+01 1.177830000000000013e+02
2.500000000000000000e+01 1.155130000000000052e+02
2.500000000000000000e+01 1.139249999999999972e+02
2.500000000000000000e+01 1.193509999999999991e+02
2.500000000000000000e+01 1.081389999999999958e+02
2.500000000000000000e+01 1.186839999999999975e+02
2.500000000000000000e+01 1.101099999999999994e+02
2.500000000000000000e+01 1.161979999999999933e+02
2.500000000000000000e+01 1.160070000000000050e+02
2.500000000000000000e+01 1.203769999999999953e+02
2.500000000000000000e+01 1.248780000000000001e+02
2.500000000000000000e+01 1.175649999999999977e+02
2.500000000000000000e+01 1.149629999999999939e+02
2.500000000000000000e+01 1.110960000000000036e+02
2.500000000000000000e+01 1.159939999999999998e+02
2.500000000000000000e+01 1.124740000000000038e+02
2.500000000000000000e+01 1.160739999999999981e+02
2.500000000000000000e+01 1.105460000000000065e+02
2.500000000000000000e+01 1.156189999999999998e+02
2.500000000000000000e+01 1.098239999999999981e+02
2.500000000000000000e+01 1.142789999999999964e+02
2.500000000000000000e+01 1.140840000000000032e+02
2.500000000000000000e+01 1.097319999999999993e+02
2.500000000000000000e+01 1.171500000000000057e+02
2.500000000000000000e+01 1.172259999999999991e+02
2.500000000000000000e+01 1.135430000000000064e+02
2.500000000000000000e+01 1.129599999999999937e+02
2.500000000000000000e+01 1.198760000000000048e+02
2.500000000000000000e+01 1.089680000000000035e+02
2.500000000000000000e+01 1.183679999999999950e+02
2.500000000000000000e+01 1.145130000000000052e+02
2.500000000000000000e+01 1.139849999999999994e+02
2.500000000000000000e+01 1.137740000000000009e+02
2.500000000000000000e+01 1.103870000000000005e+02
2.500000000000000000e+01 1.099170000000000016e+02
2.500000000000000000e+01 1.226590000000000060e+02
2.500000000000000000e+01 1.127969999999999970e+02
2.500000000000000000e+01 1.143119999999999976e+02
2.500000000000000000e+01 1.069779999999999944e+02
2.500000000000000000e+01 1.124210000000000065e+02
2.500000000000000000e+01 1.178700000000000045e+02
2.500000000000000000e+01 1.113359999999999985e+02
